#Wavelength[Angstrom]  Flux[Flux per Angstrom]
3541.54         44.72435
3542.54         260.2435
3543.54         329.8195
3544.54         325.5148
3545.54         332.0099
3546.54         323.8926
3547.54         307.8616
3548.54         306.8736
3549.54         318.0973
3550.54         309.9836
3551.54         304.7438
3552.54         302.7354
3553.54         303.6017
3554.54         291.3328
3555.54         296.0345
3556.54         311.1873
3557.54          298.752
3558.54         276.9156
3559.54         276.5334
3560.54         291.7172
3561.54           289.93
3562.54         278.4654
3563.54          264.977
3564.54         262.4899
3565.54         263.6055
3566.54         259.4822
3567.54         243.9232
3568.54         233.1199
3569.54         222.5754
3570.54         214.6614
3571.54         217.1454
3572.54         242.6863
3573.54         254.8106
3574.54         247.3293
3575.54         245.5513
3576.54         248.0471
3577.54          244.646
3578.54         236.5193
3579.54         227.1853
3580.54         219.4733
3581.54         212.5474
3582.54         193.3972
3583.54         171.9394
3584.54         170.5844
3585.54         192.9226
3586.54         200.0451
3587.54         193.2373
3588.54         217.9666
3589.54         243.1302
3590.54         250.1896
3591.54         267.0063
3592.54         280.7558
3593.54         291.9724
3594.54         309.7411
3595.54          328.821
3596.54         340.2603
3597.54          365.687
3598.54         383.6826
3599.54         374.4484
3600.54          360.745
3601.54          355.114
3602.54         354.8573
3603.54         341.8246
3604.54         321.9403
3605.54           308.52
3606.54          289.217
3607.54         279.4007
3608.54         280.5387
3609.54         273.7187
3610.54         278.1431
3611.54         297.7227
3612.54         312.5239
3613.54         310.8054
3614.54         307.1565
3615.54         319.6235
3616.54         319.3515
3617.54         306.6072
3618.54         290.7863
3619.54         290.0162
3620.54         312.6557
3621.54          310.783
3622.54         319.2102
3623.54          333.977
3624.54         341.9025
3625.54         375.2739
3626.54         392.4319
3627.54         389.1718
3628.54         392.8624
3629.54         391.9194
3630.54          375.407
3631.54          346.423
3632.54         334.1873
3633.54         331.5155
3634.54         332.4221
3635.54         336.3964
3636.54         350.0149
3637.54         359.5937
3638.54         370.9605
3639.54         394.2343
3640.54         406.8853
3641.54          395.261
3642.54         378.0087
3643.54         385.0732
3644.54         380.1869
3645.54         357.3369
3646.54         341.1152
3647.54         329.6688
3648.54         326.3757
3649.54         328.1057
3650.54         330.3255
3651.54         338.8519
3652.54         363.5363
3653.54         384.5708
3654.54         402.4807
3655.54         426.5705
3656.54         444.1702
3657.54         457.1496
3658.54         458.6058
3659.54         461.6004
3660.54         476.6998
3661.54         488.0653
3662.54         479.6386
3663.54         462.3198
3664.54         453.9217
3665.54         448.5338
3666.54         442.3544
3667.54         441.5462
3668.54         425.9852
3669.54         430.2684
3670.54         429.3498
3671.54         435.5826
3672.54         440.0955
3673.54         439.2378
3674.54          436.008
3675.54         432.8498
3676.54         421.3656
3677.54          419.658
3678.54         400.6584
3679.54         377.4108
3680.54         386.6874
3681.54         391.0715
3682.54         378.6856
3683.54         374.1381
3684.54          375.058
3685.54         376.5006
3686.54         389.9021
3687.54         375.0818
3688.54         372.3017
3689.54         380.0156
3690.54          391.679
3691.54         410.1722
3692.54         420.6718
3693.54         432.7396
3694.54         457.6638
3695.54         466.4654
3696.54         453.2263
3697.54         447.9796
3698.54         454.7477
3699.54         458.1125
3700.54         463.5488
3701.54         456.2813
3702.54         444.9074
3703.54         429.2304
3704.54         407.1711
3705.54         382.4141
3706.54          360.141
3707.54         353.7219
3708.54         340.6197
3709.54         357.9376
3710.54         385.5704
3711.54         406.1721
3712.54         424.2828
3713.54         439.7777
3714.54         453.6838
3715.54         452.4768
3716.54         446.1496
3717.54         425.7093
3718.54         403.9795
3719.54         373.3596
3720.54         334.7668
3721.54         318.4909
3722.54         312.3352
3723.54         308.1914
3724.54         315.6072
3725.54          335.688
3726.54         349.2957
3727.54         347.8892
3728.54         350.4671
3729.54         357.4395
3730.54         352.1923
3731.54         333.4479
3732.54         309.7489
3733.54         295.6684
3734.54         279.5434
3735.54         255.8741
3736.54         252.2386
3737.54         266.6891
3738.54         282.0992
3739.54         290.1791
3740.54         300.5624
3741.54         307.2785
3742.54         313.7363
3743.54         311.7589
3744.54         304.5807
3745.54         297.9302
3746.54         273.8246
3747.54         257.7596
3748.54         255.9789
3749.54         260.5137
3750.54         280.8464
3751.54           294.62
3752.54         309.8861
3753.54         329.2806
3754.54         343.7845
3755.54          356.459
3756.54         364.2565
3757.54         361.1641
3758.54         359.7475
3759.54         349.4002
3760.54         333.2514
3761.54         329.1978
3762.54         329.6995
3763.54         325.7666
3764.54         318.1484
3765.54         322.3487
3766.54         336.6295
3767.54         345.1537
3768.54         347.7256
3769.54         358.0703
3770.54         380.0438
3771.54         383.4332
3772.54         386.0946
3773.54         397.0545
3774.54         402.0081
3775.54          407.359
3776.54         413.9911
3777.54         420.6276
3778.54         417.7309
3779.54         420.8397
3780.54         439.9977
3781.54         449.4359
3782.54         446.1786
3783.54         433.0107
3784.54         419.3996
3785.54         406.3379
3786.54         397.6997
3787.54         389.3017
3788.54         364.0369
3789.54          353.128
3790.54         347.5052
3791.54         337.6625
3792.54         332.0332
3793.54         323.2502
3794.54          318.253
3795.54         312.6074
3796.54         311.0256
3797.54         313.7038
3798.54         308.3957
3799.54         312.5449
3800.54         316.7413
3801.54         321.2656
3802.54         337.0059
3803.54          361.604
3804.54         360.0908
3805.54         363.5783
3806.54         374.3867
3807.54         359.8494
3808.54         352.6938
3809.54         351.8789
3810.54         350.2664
3811.54         354.4877
3812.54         355.3893
3813.54         342.8503
3814.54         332.7409
3815.54         323.5092
3816.54         293.6847
3817.54          276.374
3818.54         277.2693
3819.54         267.2578
3820.54         262.5467
3821.54          259.485
3822.54         247.4949
3823.54         241.2543
3824.54         233.2139
3825.54         227.2092
3826.54           234.59
3827.54         235.2344
3828.54          229.946
3829.54         231.4366
3830.54         230.5664
3831.54         221.1084
3832.54         216.5066
3833.54         195.1315
3834.54         186.0944
3835.54           200.94
3836.54          221.152
3837.54         222.1421
3838.54         228.4049
3839.54         238.7101
3840.54         243.2814
3841.54         251.9588
3842.54         264.0509
3843.54         276.1005
3844.54         280.6454
3845.54         283.4611
3846.54         296.1082
3847.54         304.8626
3848.54         298.3062
3849.54          292.312
3850.54         297.7392
3851.54         301.4898
3852.54         287.6332
3853.54         285.6451
3854.54           290.69
3855.54         292.3372
3856.54         277.7467
3857.54          261.973
3858.54         258.5953
3859.54         262.1639
3860.54         272.1847
3861.54         278.0828
3862.54         276.4877
3863.54         292.0224
3864.54         301.9793
3865.54         301.6308
3866.54         309.2464
3867.54         303.6753
3868.54         300.3424
3869.54         295.9017
3870.54         291.1894
3871.54         291.4187
3872.54         304.6695
3873.54         309.2191
3874.54         301.0163
3875.54         305.9822
3876.54         315.0174
3877.54         310.6366
3878.54         314.2308
3879.54         318.3905
3880.54          308.662
3881.54         303.2576
3882.54         302.8799
3883.54         306.1765
3884.54         317.7427
3885.54          328.302
3886.54         328.1799
3887.54         339.8431
3888.54         356.1668
3889.54         369.5528
3890.54         401.8824
3891.54         425.7896
3892.54         431.4311
3893.54         441.5521
3894.54         454.8577
3895.54         459.2622
3896.54         450.2142
3897.54          442.876
3898.54         450.3822
3899.54         451.0333
3900.54         459.1514
3901.54         462.7613
3902.54         454.8029
3903.54         440.5974
3904.54         446.9661
3905.54         446.4085
3906.54         448.6541
3907.54         466.2432
3908.54         467.8687
3909.54         491.8661
3910.54         521.3939
3911.54         523.4321
3912.54         532.0599
3913.54          542.899
3914.54          546.543
3915.54         545.6883
3916.54         549.0624
3917.54         534.6122
3918.54         510.3436
3919.54          490.279
3920.54         479.7418
3921.54         461.5313
3922.54         448.7227
3923.54         437.4164
3924.54         426.3776
3925.54         414.4237
3926.54         395.0511
3927.54         372.9578
3928.54         338.8555
3929.54         301.5798
3930.54         278.3484
3931.54         252.4379
3932.54         222.3096
3933.54         200.4127
3934.54         195.4685
3935.54         203.8819
3936.54         219.6896
3937.54         241.0831
3938.54         265.6347
3939.54         295.8913
3940.54         323.0989
3941.54         346.4821
3942.54         361.6548
3943.54          381.094
3944.54         403.9377
3945.54         414.8154
3946.54         425.2773
3947.54         448.0622
3948.54         473.1494
3949.54         492.7351
3950.54         509.7122
3951.54         532.2181
3952.54         543.5027
3953.54         550.9498
3954.54         551.5953
3955.54         550.3432
3956.54         540.3106
3957.54         518.3852
3958.54          496.379
3959.54          467.782
3960.54         433.4015
3961.54         402.3376
3962.54         373.7068
3963.54         343.0465
3964.54         308.7964
3965.54         279.5534
3966.54         255.3943
3967.54         237.1917
3968.54          224.125
3969.54         229.7924
3970.54         238.0954
3971.54         252.4113
3972.54         285.2864
3973.54         324.3184
3974.54         365.4935
3975.54         411.8289
3976.54         460.4158
3977.54         507.4059
3978.54         544.6097
3979.54         575.0566
3980.54         594.2318
3981.54          606.821
3982.54         624.9591
3983.54         642.7112
3984.54         644.5674
3985.54         641.4354
3986.54         651.6687
3987.54         660.7553
3988.54         673.6635
3989.54         677.5678
3990.54         681.3726
3991.54         679.6823
3992.54         684.2596
3993.54         695.3231
3994.54         705.9077
3995.54         701.6692
3996.54         705.5956
3997.54         705.7242
3998.54         702.0276
3999.54         713.1442
4000.54         726.3633
4001.54         733.4334
4002.54         741.9424
4003.54         752.1851
4004.54         745.4744
4005.54         724.9507
4006.54         720.9697
4007.54          719.079
4008.54         714.2536
4009.54         733.3836
4010.54          766.644
4011.54          785.394
4012.54          796.497
4013.54         792.7867
4014.54         794.1367
4015.54         798.8105
4016.54         797.1202
4017.54         796.9899
4018.54         801.3785
4019.54         812.2401
4020.54         815.8425
4021.54         809.3959
4022.54         799.6752
4023.54         794.3529
4024.54         805.2234
4025.54          805.579
4026.54         789.3528
4027.54         786.8503
4028.54           789.51
4029.54         763.2864
4030.54         737.1793
4031.54         712.7853
4032.54         678.9924
4033.54         663.7982
4034.54         661.8098
4035.54         694.3899
4036.54          729.921
4037.54         750.4402
4038.54         773.7068
4039.54         790.1133
4040.54         799.7068
4041.54         803.9171
4042.54         790.8884
4043.54         766.9494
4044.54         737.3232
4045.54         710.8726
4046.54          700.502
4047.54         692.7502
4048.54         705.4714
4049.54         742.0717
4050.54         765.1771
4051.54          777.429
4052.54         802.8323
4053.54         808.3873
4054.54         790.9366
4055.54         765.9246
4056.54         743.3286
4057.54         723.1918
4058.54         706.5369
4059.54         714.5897
4060.54         712.7473
4061.54         701.8445
4062.54         683.9749
4063.54         683.7479
4064.54         687.2111
4065.54         670.5277
4066.54         675.1674
4067.54          687.743
4068.54         698.7925
4069.54         715.4767
4070.54         716.6079
4071.54         720.4476
4072.54         725.8716
4073.54         721.2316
4074.54         708.0414
4075.54         690.7951
4076.54         683.8127
4077.54         692.3855
4078.54         698.4871
4079.54         711.6519
4080.54         731.9731
4081.54         751.0179
4082.54         777.5209
4083.54         792.8133
4084.54          792.444
4085.54         809.5745
4086.54         821.7418
4087.54           831.85
4088.54         842.4709
4089.54         843.0346
4090.54         853.4205
4091.54         857.2523
4092.54         836.4352
4093.54          815.543
4094.54         796.4553
4095.54         776.3136
4096.54         763.1736
4097.54         747.0614
4098.54         715.8044
4099.54         693.9113
4100.54          685.687
4101.54         692.4407
4102.54          686.423
4103.54         690.0863
4104.54         707.6419
4105.54         721.5524
4106.54         741.9656
4107.54         758.7098
4108.54         771.7886
4109.54          771.157
4110.54         757.2845
4111.54         749.2004
4112.54         750.9333
4113.54         747.3719
4114.54          747.681
4115.54         740.7642
4116.54         744.5291
4117.54         757.7329
4118.54         758.6552
4119.54         745.1517
4120.54         739.1549
4121.54         734.9188
4122.54         726.1036
4123.54         729.7173
4124.54         733.5042
4125.54         734.1612
4126.54          733.181
4127.54         727.2961
4128.54         723.3088
4129.54         706.6968
4130.54         686.8892
4131.54         677.7341
4132.54          671.345
4133.54         660.4802
4134.54         669.0671
4135.54         700.9554
4136.54         713.9771
4137.54          720.304
4138.54         723.6083
4139.54         713.6106
4140.54          697.636
4141.54         680.0825
4142.54         666.4802
4143.54         650.5306
4144.54         637.1285
4145.54         626.5021
4146.54         625.5112
4147.54         628.8165
4148.54         635.7377
4149.54         633.7316
4150.54         625.7104
4151.54         615.9579
4152.54         617.8778
4153.54         627.4083
4154.54         623.6066
4155.54         615.9346
4156.54         617.1462
4157.54          630.743
4158.54         643.5017
4159.54         658.6552
4160.54         682.0021
4161.54         699.4348
4162.54         707.0221
4163.54         705.8483
4164.54         701.5829
4165.54         691.0954
4166.54         685.9064
4167.54         675.7286
4168.54         666.5309
4169.54         668.8735
4170.54          654.762
4171.54         647.8541
4172.54         658.4732
4173.54         652.8041
4174.54         647.7692
4175.54         651.8814
4176.54         652.7823
4177.54         653.1354
4178.54         653.3099
4179.54         648.8342
4180.54         639.8263
4181.54         668.6538
4182.54            691.6
4183.54         693.3307
4184.54         696.5826
4185.54          708.348
4186.54         718.1102
4187.54         728.5897
4188.54         729.2138
4189.54         722.4037
4190.54            734.2
4191.54         730.1532
4192.54         714.7406
4193.54         724.8163
4194.54         723.8757
4195.54         711.0821
4196.54         704.7397
4197.54         700.9303
4198.54         697.0924
4199.54         693.4113
4200.54          684.009
4201.54         680.0779
4202.54         693.9783
4203.54         708.4308
4204.54         729.6619
4205.54         753.9269
4206.54         765.1905
4207.54         777.1737
4208.54         774.1693
4209.54         766.8588
4210.54         763.5343
4211.54         764.3467
4212.54         762.6215
4213.54         757.9052
4214.54         760.3396
4215.54         762.0156
4216.54         763.1959
4217.54         791.1282
4218.54         822.9524
4219.54         821.7529
4220.54         831.2003
4221.54         834.0549
4222.54         808.4611
4223.54         771.8516
4224.54         737.9131
4225.54         705.0852
4226.54         674.8329
4227.54         661.1472
4228.54         663.3959
4229.54         691.4459
4230.54         735.2922
4231.54          773.144
4232.54         804.4264
4233.54         819.8354
4234.54         819.9695
4235.54         832.3665
4236.54         839.5483
4237.54         834.4373
4238.54         832.1013
4239.54         843.7544
4240.54         865.4016
4241.54         878.6699
4242.54         893.5186
4243.54         906.9166
4244.54         919.1176
4245.54         925.9695
4246.54         913.6497
4247.54         889.7299
4248.54         873.4262
4249.54         850.6763
4250.54         826.5721
4251.54         803.4083
4252.54         792.9376
4253.54         788.0352
4254.54         795.2913
4255.54          791.288
4256.54         794.8395
4257.54         816.7662
4258.54         822.8154
4259.54         820.2701
4260.54          820.796
4261.54         846.9802
4262.54         876.9342
4263.54         885.2456
4264.54         899.7363
4265.54         916.4918
4266.54         921.5443
4267.54         900.8226
4268.54         866.5883
4269.54         825.8631
4270.54         783.8431
4271.54         745.7728
4272.54          723.544
4273.54         724.2061
4274.54         724.3696
4275.54         740.3418
4276.54         768.4916
4277.54         800.8894
4278.54          838.741
4279.54         856.3928
4280.54         866.6116
4281.54         879.4772
4282.54         872.9389
4283.54         854.7751
4284.54         842.7169
4285.54         826.0369
4286.54         807.3085
4287.54         800.5927
4288.54         784.3304
4289.54         764.0854
4290.54         750.8851
4291.54         749.9528
4292.54         754.3807
4293.54         764.9039
4294.54         772.1992
4295.54         761.8719
4296.54         749.3436
4297.54         735.8997
4298.54         718.3721
4299.54         688.8047
4300.54         665.4207
4301.54         651.5581
4302.54         648.3221
4303.54         634.6607
4304.54         619.0511
4305.54         611.9489
4306.54         610.4291
4307.54          623.543
4308.54         634.2001
4309.54         641.6354
4310.54         675.4696
4311.54          719.282
4312.54         773.5347
4313.54         839.0527
4314.54         887.8058
4315.54         927.2911
4316.54         961.0311
4317.54          995.505
4318.54         1024.726
4319.54         1016.535
4320.54          983.994
4321.54          941.559
4322.54         911.5626
4323.54         893.9547
4324.54         865.0372
4325.54         851.9047
4326.54         866.0187
4327.54         895.1378
4328.54         932.0779
4329.54         972.3138
4330.54         1008.727
4331.54         1052.988
4332.54         1073.441
4333.54          1065.24
4334.54         1048.305
4335.54         1028.452
4336.54         1002.103
4337.54         976.1282
4338.54         945.8476
4339.54         908.3188
4340.54          887.234
4341.54         896.0175
4342.54         913.8632
4343.54         946.2119
4344.54         979.8539
4345.54          1010.09
4346.54         1022.057
4347.54         1027.623
4348.54         1052.211
4349.54         1054.052
4350.54         1040.888
4351.54         1037.587
4352.54         1024.655
4353.54          992.658
4354.54         988.8344
4355.54         1009.277
4356.54         1027.367
4357.54         1050.335
4358.54         1066.432
4359.54         1076.553
4360.54          1081.62
4361.54           1089.2
4362.54         1100.978
4363.54         1109.113
4364.54         1121.624
4365.54         1118.043
4366.54         1107.147
4367.54         1086.371
4368.54          1070.38
4369.54         1057.612
4370.54         1032.359
4371.54         1013.351
4372.54         1001.087
4373.54          990.077
4374.54         982.0554
4375.54         979.9209
4376.54          972.443
4377.54         958.1043
4378.54         947.5814
4379.54         931.1967
4380.54         911.3239
4381.54         885.8755
4382.54         847.5344
4383.54         812.4599
4384.54         799.3562
4385.54         792.8837
4386.54          807.963
4387.54         830.2557
4388.54         848.3431
4389.54         881.8505
4390.54         901.1363
4391.54         913.7333
4392.54         941.9286
4393.54         959.8913
4394.54         979.0599
4395.54         995.3021
4396.54         1002.843
4397.54         1014.346
4398.54         1017.647
4399.54         1005.815
4400.54         992.0903
4401.54         973.6751
4402.54         953.8924
4403.54         924.4399
4404.54         896.1775
4405.54         898.5287
4406.54         905.8023
4407.54         897.3768
4408.54         911.1281
4409.54         949.0566
4410.54         980.7156
4411.54         1014.562
4412.54         1034.302
4413.54         1029.887
4414.54         1032.493
4415.54         1042.374
4416.54         1035.948
4417.54          1029.52
4418.54         1047.825
4419.54         1060.654
4420.54          1065.37
4421.54         1062.733
4422.54         1058.596
4423.54          1047.31
4424.54         1040.915
4425.54         1043.447
4426.54         1047.386
4427.54         1048.242
4428.54         1047.497
4429.54         1045.854
4430.54         1044.338
4431.54         1034.518
4432.54         1028.893
4433.54         1019.542
4434.54         1012.873
4435.54         1022.687
4436.54         1020.448
4437.54         1033.828
4438.54         1051.904
4439.54         1057.178
4440.54         1089.722
4441.54         1098.824
4442.54         1098.217
4443.54         1118.793
4444.54         1118.619
4445.54         1120.972
4446.54         1143.652
4447.54         1148.343
4448.54         1148.635
4449.54         1151.408
4450.54         1138.806
4451.54         1110.034
4452.54         1072.499
4453.54          1046.33
4454.54         1029.464
4455.54          1005.81
4456.54         986.3556
4457.54          969.857
4458.54         958.9697
4459.54         958.9273
4460.54         961.2043
4461.54         966.7469
4462.54         973.8986
4463.54         989.0367
4464.54         1022.422
4465.54         1035.644
4466.54         1046.683
4467.54         1087.597
4468.54         1089.117
4469.54         1079.525
4470.54         1100.867
4471.54         1121.549
4472.54         1132.321
4473.54           1154.9
4474.54         1166.357
4475.54         1173.016
4476.54          1188.47
4477.54          1182.95
4478.54          1176.14
4479.54         1167.793
4480.54         1155.976
4481.54          1141.99
4482.54         1139.379
4483.54         1145.424
4484.54         1153.865
4485.54         1160.209
4486.54         1157.619
4487.54         1160.229
4488.54         1166.733
4489.54         1157.198
4490.54          1132.58
4491.54         1106.857
4492.54         1096.712
4493.54         1084.559
4494.54         1081.225
4495.54         1083.678
4496.54         1093.761
4497.54         1103.224
4498.54         1116.051
4499.54         1137.668
4500.54         1166.964
4501.54         1197.406
4502.54         1221.795
4503.54          1236.69
4504.54         1252.895
4505.54         1268.734
4506.54          1273.07
4507.54         1269.679
4508.54         1257.302
4509.54         1249.273
4510.54         1251.763
4511.54         1237.321
4512.54         1225.656
4513.54         1218.476
4514.54         1203.986
4515.54         1195.448
4516.54         1198.378
4517.54         1203.069
4518.54         1205.677
4519.54         1214.677
4520.54         1216.538
4521.54         1208.875
4522.54         1197.031
4523.54         1170.823
4524.54         1141.698
4525.54         1114.187
4526.54         1082.876
4527.54         1054.691
4528.54         1021.794
4529.54         1010.246
4530.54         1017.753
4531.54         1025.625
4532.54         1040.034
4533.54         1066.734
4534.54         1092.929
4535.54         1104.456
4536.54          1114.61
4537.54         1130.931
4538.54         1143.868
4539.54         1158.173
4540.54         1181.143
4541.54         1183.834
4542.54         1174.413
4543.54         1142.683
4544.54         1110.315
4545.54         1143.843
4546.54         1158.158
4547.54          1153.87
4548.54         1162.732
4549.54         1171.798
4550.54         1167.192
4551.54         1162.668
4552.54         1166.557
4553.54         1170.884
4554.54         1190.566
4555.54         1206.693
4556.54         1224.859
4557.54         1242.786
4558.54         1264.379
4559.54         1282.658
4560.54         1289.426
4561.54         1284.043
4562.54         1280.454
4563.54         1272.837
4564.54         1265.634
4565.54         1259.887
4566.54         1253.197
4567.54          1254.93
4568.54         1263.627
4569.54         1269.719
4570.54         1270.484
4571.54         1265.344
4572.54         1255.361
4573.54         1251.127
4574.54         1241.782
4575.54         1233.251
4576.54         1233.369
4577.54         1227.812
4578.54          1214.74
4579.54         1200.745
4580.54         1180.598
4581.54         1176.581
4582.54          1182.91
4583.54         1187.738
4584.54          1201.41
4585.54         1211.992
4586.54         1229.811
4587.54         1238.526
4588.54         1236.162
4589.54         1220.685
4590.54         1218.859
4591.54         1228.744
4592.54         1223.127
4593.54         1216.151
4594.54         1220.706
4595.54         1207.713
4596.54         1197.981
4597.54         1189.464
4598.54         1190.857
4599.54         1197.519
4600.54         1192.112
4601.54         1205.719
4602.54         1213.724
4603.54         1211.426
4604.54         1217.268
4605.54         1238.833
4606.54         1262.223
4607.54         1273.699
4608.54         1285.272
4609.54         1303.318
4610.54         1313.909
4611.54          1319.95
4612.54         1324.417
4613.54         1331.786
4614.54          1332.07
4615.54         1344.662
4616.54         1353.466
4617.54         1353.273
4618.54         1362.835
4619.54         1361.128
4620.54         1351.426
4621.54         1355.351
4622.54         1348.246
4623.54         1336.656
4624.54         1339.341
4625.54         1346.398
4626.54         1339.097
4627.54         1316.441
4628.54         1315.705
4629.54         1311.059
4630.54          1305.63
4631.54          1305.48
4632.54         1297.389
4633.54         1299.959
4634.54         1279.983
4635.54         1256.081
4636.54         1246.015
4637.54         1221.105
4638.54         1191.165
4639.54         1188.742
4640.54          1180.23
4641.54         1160.439
4642.54         1159.486
4643.54         1165.788
4644.54          1150.66
4645.54          1139.36
4646.54         1138.003
4647.54         1141.625
4648.54         1149.832
4649.54         1151.945
4650.54         1165.677
4651.54         1190.719
4652.54            1210.
4653.54         1213.516
4654.54         1215.202
4655.54         1244.412
4656.54         1261.469
4657.54          1261.54
4658.54         1262.347
4659.54         1257.191
4660.54         1250.604
4661.54         1259.538
4662.54          1247.24
4663.54         1210.243
4664.54         1181.457
4665.54         1146.001
4666.54         1112.653
4667.54         1106.169
4668.54         1121.114
4669.54         1133.068
4670.54         1139.256
4671.54         1152.697
4672.54         1177.126
4673.54          1191.23
4674.54         1204.791
4675.54         1223.391
4676.54         1214.751
4677.54          1201.17
4678.54          1198.16
4679.54         1202.582
4680.54          1197.67
4681.54         1194.681
4682.54         1205.165
4683.54         1202.166
4684.54         1199.264
4685.54         1203.903
4686.54         1203.181
4687.54         1203.491
4688.54         1201.026
4689.54         1205.676
4690.54         1203.628
4691.54         1202.199
4692.54         1202.523
4693.54         1200.147
4694.54         1207.111
4695.54         1204.547
4696.54         1192.348
4697.54          1193.45
4698.54         1183.865
4699.54         1156.617
4700.54          1149.21
4701.54          1144.41
4702.54          1136.99
4703.54         1140.719
4704.54         1146.037
4705.54         1146.221
4706.54          1144.84
4707.54         1154.242
4708.54         1178.162
4709.54         1183.827
4710.54          1183.64
4711.54         1197.334
4712.54          1209.73
4713.54         1220.034
4714.54         1228.775
4715.54         1244.008
4716.54         1258.678
4717.54         1270.312
4718.54          1289.83
4719.54         1319.675
4720.54         1327.128
4721.54         1322.561
4722.54         1319.936
4723.54         1302.817
4724.54         1289.544
4725.54         1285.681
4726.54         1272.263
4727.54          1247.54
4728.54         1226.647
4729.54         1211.323
4730.54         1197.892
4731.54         1194.352
4732.54           1196.5
4733.54         1232.041
4734.54         1248.644
4735.54         1249.203
4736.54          1262.09
4737.54         1270.441
4738.54         1274.847
4739.54         1278.971
4740.54         1295.478
4741.54         1304.993
4742.54         1297.046
4743.54         1307.149
4744.54         1309.061
4745.54         1307.545
4746.54          1315.25
4747.54         1316.923
4748.54         1312.327
4749.54          1311.85
4750.54         1305.552
4751.54         1285.426
4752.54         1273.424
4753.54         1268.406
4754.54          1255.26
4755.54         1256.916
4756.54         1270.636
4757.54         1264.268
4758.54         1250.605
4759.54         1245.563
4760.54         1245.137
4761.54         1228.378
4762.54          1212.58
4763.54         1212.326
4764.54         1211.063
4765.54         1197.659
4766.54         1188.745
4767.54         1205.234
4768.54         1218.259
4769.54         1226.892
4770.54         1249.858
4771.54          1268.25
4772.54          1272.41
4773.54         1280.058
4774.54         1288.648
4775.54         1299.076
4776.54         1297.516
4777.54         1297.913
4778.54          1286.37
4779.54         1282.271
4780.54         1289.952
4781.54          1285.54
4782.54         1271.979
4783.54         1262.651
4784.54         1248.696
4785.54         1235.658
4786.54         1236.811
4787.54         1248.302
4788.54         1265.639
4789.54         1283.391
4790.54         1292.027
4791.54         1287.398
4792.54         1314.136
4793.54         1346.157
4794.54         1352.576
4795.54         1351.581
4796.54         1355.535
4797.54         1358.891
4798.54         1361.666
4799.54           1362.1
4800.54         1346.902
4801.54          1329.12
4802.54         1329.105
4803.54         1335.144
4804.54         1330.524
4805.54         1321.515
4806.54         1315.651
4807.54         1315.782
4808.54          1304.83
4809.54         1310.155
4810.54          1312.16
4811.54          1308.92
4812.54           1315.3
4813.54         1321.504
4814.54         1327.613
4815.54          1332.67
4816.54         1343.887
4817.54         1359.521
4818.54         1354.628
4819.54         1358.932
4820.54         1360.063
4821.54         1345.863
4822.54         1331.592
4823.54         1318.125
4824.54         1312.736
4825.54         1300.324
4826.54         1294.866
4827.54         1294.825
4828.54         1287.365
4829.54         1287.859
4830.54          1292.45
4831.54         1284.666
4832.54         1286.377
4833.54         1286.941
4834.54         1279.047
4835.54         1278.782
4836.54         1291.124
4837.54         1310.775
4838.54         1306.064
4839.54         1284.365
4840.54         1288.164
4841.54         1288.893
4842.54         1286.366
4843.54         1284.128
4844.54         1298.371
4845.54         1300.686
4846.54         1300.302
4847.54         1308.385
4848.54         1306.558
4849.54         1294.673
4850.54         1284.668
4851.54         1277.054
4852.54         1263.474
4853.54         1253.129
4854.54         1242.607
4855.54         1230.696
4856.54         1205.567
4857.54         1174.868
4858.54         1160.101
4859.54         1147.537
4860.54         1137.663
4861.54         1130.242
4862.54         1142.168
4863.54         1146.302
4864.54         1153.126
4865.54         1175.287
4866.54         1179.911
4867.54         1179.854
4868.54         1193.384
4869.54         1199.278
4870.54         1205.752
4871.54         1201.566
4872.54         1202.766
4873.54         1207.345
4874.54         1222.138
4875.54         1239.243
4876.54         1262.298
4877.54         1279.315
4878.54         1292.794
4879.54          1303.27
4880.54         1292.986
4881.54         1296.197
4882.54         1297.896
4883.54         1274.093
4884.54         1255.019
4885.54         1238.171
4886.54         1228.419
4887.54         1234.964
4888.54         1224.229
4889.54         1225.789
4890.54         1232.076
4891.54         1241.993
4892.54         1269.524
4893.54         1305.522
4894.54         1334.746
4895.54         1356.123
4896.54         1367.229
4897.54         1380.412
4898.54          1394.56
4899.54          1383.85
4900.54         1355.347
4901.54         1342.009
4902.54          1345.84
4903.54         1351.201
4904.54         1340.061
4905.54          1332.18
4906.54         1334.792
4907.54         1336.678
4908.54         1323.843
4909.54         1308.356
4910.54         1304.086
4911.54          1318.44
4912.54         1313.292
4913.54         1288.878
4914.54         1273.226
4915.54         1274.511
4916.54         1272.672
4917.54          1258.32
4918.54         1239.161
4919.54         1225.176
4920.54         1211.887
4921.54         1199.056
4922.54          1209.41
4923.54         1234.812
4924.54         1255.815
4925.54          1277.79
4926.54         1305.899
4927.54         1333.456
4928.54         1347.594
4929.54         1351.634
4930.54         1361.466
4931.54         1362.219
4932.54         1352.157
4933.54         1339.833
4934.54          1324.14
4935.54         1309.948
4936.54         1287.869
4937.54         1276.041
4938.54          1283.36
4939.54         1295.108
4940.54         1301.961
4941.54         1319.656
4942.54         1335.355
4943.54         1350.635
4944.54          1381.38
4945.54         1390.443
4946.54          1382.99
4947.54         1392.338
4948.54         1399.225
4949.54         1395.701
4950.54         1386.288
4951.54         1368.736
4952.54         1362.765
4953.54         1348.756
4954.54         1327.849
4955.54         1313.276
4956.54         1276.819
4957.54         1255.031
4958.54         1258.627
4959.54         1261.908
4960.54         1275.353
4961.54         1281.581
4962.54         1280.125
4963.54         1293.709
4964.54          1298.41
4965.54         1287.138
4966.54         1287.659
4967.54         1278.873
4968.54         1261.786
4969.54         1265.298
4970.54         1284.184
4971.54         1298.916
4972.54         1304.137
4973.54         1296.614
4974.54         1299.543
4975.54         1303.628
4976.54         1276.191
4977.54         1249.584
4978.54         1232.578
4979.54         1203.899
4980.54          1176.19
4981.54         1168.776
4982.54         1154.254
4983.54         1148.256
4984.54         1154.482
4985.54         1161.935
4986.54         1185.975
4987.54         1208.538
4988.54         1228.757
4989.54         1247.001
4990.54         1264.072
4991.54         1271.849
4992.54         1264.634
4993.54         1253.641
4994.54         1243.917
4995.54         1252.577
4996.54         1249.607
4997.54         1239.331
4998.54         1226.239
4999.54         1198.664
5000.54         1181.566
5001.54         1188.134
5002.54         1172.988
5003.54         1148.675
5004.54         1140.692
5005.54         1148.221
5006.54         1155.334
5007.54         1165.402
5008.54         1173.155
5009.54         1157.281
5010.54         1145.489
5011.54         1142.902
5012.54          1132.72
5013.54         1128.181
5014.54         1135.789
5015.54         1132.139
5016.54          1123.91
5017.54         1123.582
5018.54         1128.067
5019.54         1130.369
5020.54          1133.32
5021.54         1148.844
5022.54         1160.125
5023.54         1166.566
5024.54         1177.404
5025.54         1184.008
5026.54         1187.491
5027.54         1205.145
5028.54         1210.577
5029.54         1219.105
5030.54         1234.239
5031.54         1238.175
5032.54         1241.337
5033.54            1250.
5034.54         1248.336
5035.54         1230.716
5036.54         1211.086
5037.54         1193.751
5038.54         1163.493
5039.54         1139.865
5040.54         1143.577
5041.54         1149.069
5042.54         1156.335
5043.54         1171.059
5044.54         1185.987
5045.54          1199.16
5046.54         1217.533
5047.54         1229.477
5048.54         1222.162
5049.54         1220.891
5050.54         1235.384
5051.54            1236.
5052.54         1231.913
5053.54         1227.569
5054.54          1231.64
5055.54         1256.599
5056.54         1276.542
5057.54         1277.335
5058.54         1292.073
5059.54         1315.641
5060.54         1298.799
5061.54         1290.026
5062.54         1289.059
5063.54         1267.511
5064.54         1249.675
5065.54         1221.125
5066.54         1205.621
5067.54          1205.95
5068.54         1197.112
5069.54         1190.132
5070.54         1192.683
5071.54         1194.917
5072.54         1189.507
5073.54         1197.863
5074.54         1186.985
5075.54         1173.928
5076.54         1170.384
5077.54         1166.002
5078.54         1158.868
5079.54         1152.041
5080.54         1134.828
5081.54         1124.219
5082.54         1132.622
5083.54         1128.862
5084.54         1136.064
5085.54         1149.061
5086.54         1162.951
5087.54         1182.713
5088.54         1200.147
5089.54         1213.173
5090.54         1233.766
5091.54         1237.863
5092.54         1229.911
5093.54         1225.697
5094.54         1225.812
5095.54         1228.275
5096.54         1200.811
5097.54         1179.499
5098.54          1176.97
5099.54         1162.356
5100.54         1150.205
5101.54         1150.681
5102.54         1148.473
5103.54         1153.618
5104.54         1152.781
5105.54         1161.018
5106.54         1180.323
5107.54         1169.294
5108.54         1159.655
5109.54         1160.616
5110.54         1169.219
5111.54         1189.455
5112.54         1190.542
5113.54         1187.782
5114.54         1229.243
5115.54         1241.208
5116.54         1227.471
5117.54         1226.132
5118.54          1230.72
5119.54         1225.143
5120.54         1211.962
5121.54         1191.987
5122.54         1178.474
5123.54         1161.227
5124.54         1130.818
5125.54         1117.477
5126.54          1119.91
5127.54         1114.569
5128.54         1123.473
5129.54         1135.124
5130.54         1144.521
5131.54         1163.659
5132.54         1171.758
5133.54         1165.312
5134.54         1173.256
5135.54         1190.221
5136.54         1189.067
5137.54         1165.242
5138.54         1170.047
5139.54          1185.35
5140.54         1168.688
5141.54          1144.67
5142.54         1132.815
5143.54         1144.145
5144.54           1145.8
5145.54         1137.887
5146.54         1129.167
5147.54         1118.673
5148.54         1119.734
5149.54         1135.205
5150.54         1124.406
5151.54         1122.217
5152.54         1128.438
5153.54         1148.719
5154.54         1149.943
5155.54         1164.339
5156.54         1187.706
5157.54          1186.86
5158.54         1195.337
5159.54         1202.536
5160.54         1195.969
5161.54         1173.885
5162.54          1155.66
5163.54          1114.26
5164.54         1067.431
5165.54         1021.154
5166.54         978.4976
5167.54         935.7897
5168.54         902.7037
5169.54          880.191
5170.54         861.0091
5171.54         847.1818
5172.54           857.92
5173.54         873.5461
5174.54         879.4716
5175.54         917.1542
5176.54         949.1754
5177.54         968.8785
5178.54         994.7175
5179.54         987.0006
5180.54         979.1293
5181.54          967.097
5182.54         949.8836
5183.54         951.0083
5184.54         958.0642
5185.54         972.0175
5186.54         993.8423
5187.54         1008.079
5188.54         1034.577
5189.54         1075.053
5190.54         1103.573
5191.54         1129.482
5192.54         1160.602
5193.54          1179.63
5194.54         1167.534
5195.54         1151.031
5196.54          1158.05
5197.54         1174.188
5198.54          1206.41
5199.54         1225.332
5200.54         1206.803
5201.54         1206.306
5202.54         1206.767
5203.54          1180.89
5204.54         1143.373
5205.54         1113.511
5206.54           1101.6
5207.54         1079.785
5208.54          1079.86
5209.54         1088.551
5210.54         1109.184
5211.54         1136.112
5212.54         1151.485
5213.54         1181.478
5214.54         1218.824
5215.54         1246.874
5216.54          1267.17
5217.54         1262.919
5218.54         1262.817
5219.54         1287.379
5220.54         1282.597
5221.54         1264.663
5222.54         1265.428
5223.54         1265.864
5224.54         1248.681
5225.54         1237.469
5226.54         1233.488
5227.54         1214.166
5228.54         1194.126
5229.54         1200.896
5230.54         1231.214
5231.54         1256.791
5232.54         1278.559
5233.54         1290.359
5234.54         1289.411
5235.54         1295.038
5236.54         1317.963
5237.54          1336.25
5238.54         1338.742
5239.54         1347.926
5240.54         1352.677
5241.54         1348.152
5242.54         1363.461
5243.54         1358.992
5244.54         1341.125
5245.54         1341.356
5246.54         1344.754
5247.54         1334.341
5248.54         1308.738
5249.54         1285.956
5250.54         1277.128
5251.54         1283.309
5252.54         1280.633
5253.54          1286.57
5254.54         1305.967
5255.54         1304.878
5256.54         1300.544
5257.54         1309.868
5258.54         1310.476
5259.54         1322.834
5260.54         1304.456
5261.54         1275.009
5262.54         1272.331
5263.54         1237.692
5264.54         1194.608
5265.54         1161.949
5266.54         1113.227
5267.54         1089.094
5268.54         1088.216
5269.54          1078.42
5270.54         1076.494
5271.54         1102.317
5272.54         1134.964
5273.54         1160.484
5274.54         1198.726
5275.54          1223.14
5276.54         1231.853
5277.54         1277.274
5278.54         1313.965
5279.54          1320.88
5280.54         1328.556
5281.54         1344.165
5282.54         1348.526
5283.54         1353.047
5284.54         1356.885
5285.54         1364.504
5286.54         1372.415
5287.54         1373.156
5288.54         1384.048
5289.54         1397.412
5290.54         1414.258
5291.54         1430.073
5292.54         1433.689
5293.54          1428.42
5294.54         1412.294
5295.54          1377.19
5296.54         1351.487
5297.54         1344.407
5298.54         1338.985
5299.54         1313.442
5300.54         1300.247
5301.54         1318.159
5302.54         1326.092
5303.54         1350.683
5304.54         1402.536
5305.54         1396.174
5306.54         1414.495
5307.54         1450.094
5308.54         1467.034
5309.54         1477.215
5310.54         1463.192
5311.54         1453.824
5312.54         1452.067
5313.54         1455.573
5314.54         1452.304
5315.54         1422.734
5316.54         1433.805
5317.54         1434.812
5318.54         1424.914
5319.54         1416.638
5320.54         1404.083
5321.54         1391.561
5322.54         1382.656
5323.54          1361.85
5324.54         1345.101
5325.54         1323.219
5326.54         1294.375
5327.54          1281.06
5328.54         1285.747
5329.54         1282.333
5330.54         1276.044
5331.54         1297.633
5332.54         1326.393
5333.54         1339.432
5334.54         1351.588
5335.54         1367.894
5336.54         1379.832
5337.54         1385.866
5338.54         1396.149
5339.54         1384.625
5340.54         1364.513
5341.54          1356.54
5342.54         1341.557
5343.54         1350.942
5344.54         1353.733
5345.54         1359.632
5346.54         1368.284
5347.54         1361.711
5348.54         1368.302
5349.54         1397.851
5350.54         1416.765
5351.54         1425.211
5352.54         1431.231
5353.54         1453.461
5354.54         1473.809
5355.54         1484.955
5356.54         1485.253
5357.54         1503.722
5358.54         1521.269
5359.54         1507.108
5360.54         1490.089
5361.54         1480.212
5362.54         1470.127
5363.54         1450.235
5364.54          1426.27
5365.54         1406.892
5366.54         1389.907
5367.54         1365.891
5368.54         1353.805
5369.54          1355.19
5370.54         1341.997
5371.54         1331.746
5372.54         1335.452
5373.54         1352.214
5374.54         1387.231
5375.54         1395.029
5376.54         1398.158
5377.54         1411.387
5378.54         1437.767
5379.54         1451.198
5380.54         1447.273
5381.54          1449.62
5382.54         1457.148
5383.54         1449.855
5384.54         1438.917
5385.54         1450.614
5386.54          1424.85
5387.54           1383.4
5388.54         1375.799
5389.54         1376.147
5390.54         1377.798
5391.54         1358.789
5392.54            1337.
5393.54         1334.649
5394.54          1322.15
5395.54          1310.98
5396.54         1316.025
5397.54         1304.238
5398.54         1299.748
5399.54         1309.278
5400.54         1301.588
5401.54         1292.387
5402.54          1291.44
5403.54         1281.662
5404.54         1280.593
5405.54         1276.709
5406.54         1280.609
5407.54         1293.547
5408.54         1297.806
5409.54          1304.46
5410.54         1313.212
5411.54          1319.58
5412.54         1344.616
5413.54         1375.431
5414.54         1380.685
5415.54         1397.196
5416.54         1424.005
5417.54         1441.035
5418.54         1452.308
5419.54         1448.421
5420.54         1447.875
5421.54         1444.177
5422.54          1427.02
5423.54         1422.496
5424.54         1416.621
5425.54         1409.845
5426.54         1419.812
5427.54         1411.986
5428.54         1391.806
5429.54         1384.529
5430.54         1383.432
5431.54         1381.445
5432.54         1371.945
5433.54         1369.698
5434.54         1368.491
5435.54         1373.896
5436.54         1390.769
5437.54         1416.638
5438.54         1438.805
5439.54          1456.63
5440.54         1473.082
5441.54         1480.891
5442.54         1469.894
5443.54         1445.664
5444.54         1424.276
5445.54         1406.807
5446.54         1390.102
5447.54         1371.458
5448.54         1352.707
5449.54          1350.58
5450.54         1361.318
5451.54         1366.307
5452.54         1371.015
5453.54         1375.743
5454.54         1371.427
5455.54         1356.065
5456.54         1347.254
5457.54         1355.613
5458.54         1371.547
5459.54         1379.697
5460.54         1384.073
5461.54         1393.299
5462.54         1400.339
5463.54         1397.318
5464.54         1385.445
5465.54         1375.338
5466.54         1376.442
5467.54         1383.495
5468.54         1385.625
5469.54         1380.472
5470.54          1374.35
5471.54         1366.913
5472.54         1353.362
5473.54         1343.196
5474.54         1343.418
5475.54         1345.985
5476.54         1336.892
5477.54         1326.519
5478.54         1323.341
5479.54          1323.06
5480.54         1328.529
5481.54         1348.412
5482.54         1373.575
5483.54         1376.986
5484.54         1373.822
5485.54         1380.642
5486.54         1391.372
5487.54         1402.042
5488.54         1405.171
5489.54         1399.719
5490.54         1396.143
5491.54         1388.637
5492.54         1380.903
5493.54         1387.605
5494.54         1400.033
5495.54         1404.651
5496.54            1400.
5497.54         1397.449
5498.54         1401.082
5499.54         1403.989
5500.54         1398.048
5501.54         1387.629
5502.54         1381.038
5503.54         1378.975
5504.54         1374.622
5505.54         1371.636
5506.54         1370.884
5507.54         1364.744
5508.54         1352.909
5509.54         1350.826
5510.54          1360.94
5511.54         1358.589
5512.54         1353.059
5513.54         1356.138
5514.54         1360.101
5515.54         1362.041
5516.54         1367.893
5517.54         1380.744
5518.54          1392.51
5519.54         1404.668
5520.54         1418.261
5521.54         1425.844
5522.54          1421.02
5523.54         1411.936
5524.54         1407.787
5525.54         1402.612
5526.54         1396.113
5527.54         1391.046
5528.54         1386.791
5529.54         1381.549
5530.54         1385.882
5531.54         1400.853
5532.54         1402.899
5533.54         1401.726
5534.54         1412.603
5535.54         1426.831
5536.54         1428.505
5537.54         1423.584
5538.54         1425.945
5539.54         1429.883
5540.54         1432.527
5541.54         1437.256
5542.54          1446.14
5543.54         1452.644
5544.54         1451.996
5545.54         1447.955
5546.54         1449.224
5547.54         1457.613
5548.54         1466.702
5549.54         1469.825
5550.54         1468.723
5551.54          1465.85
5552.54         1462.333
5553.54          1459.44
5554.54         1453.477
5555.54         1443.724
5556.54         1435.528
5557.54         1430.484
5558.54          1431.31
5559.54          1435.99
5560.54         1431.958
5561.54          1418.53
5562.54         1407.727
5563.54         1408.135
5564.54         1407.067
5565.54         1398.091
5566.54         1389.093
5567.54          1387.78
5568.54          1396.99
5569.54         1408.611
5570.54         1409.547
5571.54          1403.34
5572.54         1401.014
5573.54         1407.127
5574.54         1415.193
5575.54         1422.119
5576.54          1423.47
5577.54         1415.515
5578.54         1413.965
5579.54         1418.254
5580.54         1417.089
5581.54         1416.442
5582.54         1404.355
5583.54         1377.677
5584.54         1355.904
5585.54          1339.89
5586.54         1322.306
5587.54         1304.072
5588.54         1296.859
5589.54         1298.815
5590.54         1302.528
5591.54         1308.366
5592.54         1318.961
5593.54         1337.392
5594.54         1357.857
5595.54         1363.504
5596.54         1364.135
5597.54         1370.978
5598.54         1374.064
5599.54          1370.16
5600.54         1366.014
5601.54         1368.703
5602.54         1375.286
5603.54         1379.942
5604.54         1384.414
5605.54         1397.866
5606.54         1422.366
5607.54         1446.249
5608.54         1455.267
5609.54          1451.86
5610.54         1447.172
5611.54         1443.667
5612.54         1431.906
5613.54         1408.701
5614.54         1391.432
5615.54         1391.767
5616.54         1383.294
5617.54         1366.328
5618.54         1358.095
5619.54         1358.995
5620.54         1360.322
5621.54         1360.361
5622.54         1362.325
5623.54         1362.122
5624.54         1366.034
5625.54         1375.974
5626.54         1380.941
5627.54         1386.003
5628.54         1395.405
5629.54         1403.574
5630.54         1405.817
5631.54         1404.617
5632.54         1405.022
5633.54         1407.613
5634.54         1406.835
5635.54         1399.109
5636.54         1390.388
5637.54         1391.934
5638.54         1395.464
5639.54         1387.859
5640.54         1373.655
5641.54         1371.478
5642.54         1380.829
5643.54         1385.528
5644.54         1388.298
5645.54         1393.962
5646.54         1400.025
5647.54         1401.868
5648.54          1407.38
5649.54         1412.102
5650.54         1404.459
5651.54          1395.52
5652.54         1393.507
5653.54         1395.809
5654.54         1395.167
5655.54         1388.256
5656.54         1380.092
5657.54         1374.598
5658.54         1363.952
5659.54         1354.286
5660.54         1352.628
5661.54         1353.098
5662.54         1364.142
5663.54         1383.072
5664.54         1392.709
5665.54         1391.707
5666.54         1393.312
5667.54         1405.149
5668.54         1418.125
5669.54         1422.986
5670.54          1424.15
5671.54         1432.457
5672.54          1442.81
5673.54         1447.927
5674.54         1448.082
5675.54         1447.998
5676.54         1443.992
5677.54         1438.143
5678.54         1437.031
5679.54         1433.791
5680.54         1427.731
5681.54         1420.139
5682.54         1406.005
5683.54         1392.151
5684.54          1383.75
5685.54         1379.804
5686.54         1384.711
5687.54         1393.942
5688.54         1397.902
5689.54          1396.94
5690.54         1408.047
5691.54         1427.991
5692.54         1434.972
5693.54         1435.494
5694.54          1440.43
5695.54         1448.336
5696.54         1449.227
5697.54         1442.474
5698.54         1431.973
5699.54          1418.91
5700.54         1402.764
5701.54         1392.397
5702.54         1389.532
5703.54         1378.978
5704.54          1365.29
5705.54         1359.276
5706.54          1359.74
5707.54         1354.943
5708.54         1349.674
5709.54         1351.296
5710.54         1349.935
5711.54         1356.319
5712.54          1373.29
5713.54         1389.371
5714.54          1412.91
5715.54         1440.583
5716.54         1460.605
5717.54         1472.643
5718.54         1476.506
5719.54         1480.564
5720.54         1493.722
5721.54          1502.03
5722.54         1501.132
5723.54         1499.115
5724.54         1499.642
5725.54         1499.874
5726.54         1495.061
5727.54          1485.54
5728.54         1478.892
5729.54         1478.084
5730.54         1478.818
5731.54          1475.99
5732.54         1468.885
5733.54         1465.468
5734.54         1474.371
5735.54         1486.391
5736.54         1491.429
5737.54         1490.252
5738.54          1490.32
5739.54         1491.434
5740.54         1490.964
5741.54         1488.891
5742.54         1483.502
5743.54         1478.248
5744.54         1477.863
5745.54           1479.7
5746.54          1479.18
5747.54         1475.471
5748.54         1472.348
5749.54         1473.619
5750.54         1472.852
5751.54         1466.983
5752.54         1468.621
5753.54         1468.947
5754.54         1458.702
5755.54         1447.178
5756.54          1442.23
5757.54         1447.977
5758.54         1460.412
5759.54         1467.237
5760.54         1468.554
5761.54          1468.86
5762.54         1468.767
5763.54         1471.553
5764.54         1475.779
5765.54         1479.838
5766.54         1488.538
5767.54         1497.748
5768.54         1499.731
5769.54         1494.345
5770.54         1492.505
5771.54         1494.541
5772.54         1490.529
5773.54         1479.359
5774.54         1469.159
5775.54         1463.291
5776.54         1455.646
5777.54         1444.055
5778.54          1428.91
5779.54          1412.32
5780.54         1398.381
5781.54         1387.856
5782.54         1376.603
5783.54         1361.917
5784.54         1352.078
5785.54          1355.48
5786.54         1371.425
5787.54         1391.335
5788.54         1414.781
5789.54         1438.864
5790.54         1453.683
5791.54         1462.726
5792.54         1469.731
5793.54           1475.7
5794.54         1485.173
5795.54         1492.264
5796.54         1492.554
5797.54         1492.629
5798.54         1497.319
5799.54         1504.665
5800.54         1509.764
5801.54          1512.55
5802.54          1513.85
5803.54         1514.986
5804.54         1517.185
5805.54         1517.916
5806.54          1513.04
5807.54         1502.083
5808.54         1491.581
5809.54         1486.207
5810.54          1485.28
5811.54         1485.763
5812.54         1487.497
5813.54         1486.535
5814.54         1482.306
5815.54         1487.916
5816.54         1500.211
5817.54         1508.455
5818.54         1511.674
5819.54         1512.249
5820.54         1513.064
5821.54         1513.834
5822.54          1511.18
5823.54         1515.525
5824.54         1528.329
5825.54         1531.429
5826.54         1528.263
5827.54         1523.977
5828.54         1516.727
5829.54         1510.534
5830.54         1510.859
5831.54         1515.453
5832.54         1515.275
5833.54         1511.837
5834.54         1510.364
5835.54         1511.972
5836.54         1513.187
5837.54         1512.807
5838.54         1510.991
5839.54         1507.291
5840.54         1505.097
5841.54         1507.745
5842.54         1513.561
5843.54         1514.841
5844.54         1509.078
5845.54         1498.919
5846.54         1487.709
5847.54          1480.95
5848.54         1473.887
5849.54         1461.176
5850.54         1455.944
5851.54         1452.766
5852.54         1441.654
5853.54         1429.372
5854.54         1417.073
5855.54         1405.726
5856.54          1400.91
5857.54         1407.237
5858.54         1417.772
5859.54         1422.782
5860.54         1421.529
5861.54          1419.86
5862.54         1420.353
5863.54         1420.009
5864.54         1418.468
5865.54         1420.509
5866.54         1428.502
5867.54          1436.36
5868.54         1434.591
5869.54         1425.692
5870.54         1422.732
5871.54         1429.416
5872.54         1433.607
5873.54         1427.824
5874.54         1421.846
5875.54         1410.939
5876.54         1393.662
5877.54         1376.693
5878.54         1356.764
5879.54         1336.293
5880.54         1313.598
5881.54         1277.146
5882.54          1239.42
5883.54          1206.84
5884.54         1171.886
5885.54         1141.181
5886.54          1092.85
5887.54          1016.81
5888.54         953.6785
5889.54         916.1462
5890.54         896.7017
5891.54         883.3697
5892.54          860.441
5893.54         837.1379
5894.54         838.6304
5895.54         878.1633
5896.54         942.4003
5897.54         1005.901
5898.54         1049.657
5899.54         1074.199
5900.54         1106.798
5901.54         1167.298
5902.54         1237.905
5903.54         1290.606
5904.54         1323.433
5905.54         1351.788
5906.54          1367.13
5907.54         1376.028
5908.54         1388.451
5909.54         1392.502
5910.54         1393.299
5911.54         1396.241
5912.54         1396.659
5913.54         1397.151
5914.54         1393.904
5915.54         1385.588
5916.54         1384.587
5917.54          1392.17
5918.54         1401.684
5919.54         1408.688
5920.54         1413.357
5921.54         1416.533
5922.54         1418.665
5923.54         1421.173
5924.54         1425.704
5925.54         1428.344
5926.54         1423.966
5927.54         1420.341
5928.54         1421.313
5929.54         1423.328
5930.54         1424.418
5931.54          1427.49
5932.54         1430.796
5933.54         1429.833
5934.54         1432.759
5935.54         1434.511
5936.54         1429.039
5937.54         1430.829
5938.54         1436.875
5939.54         1439.483
5940.54         1439.607
5941.54         1435.821
5942.54         1434.393
5943.54         1439.979
5944.54         1443.589
5945.54          1446.19
5946.54         1449.284
5947.54         1448.558
5948.54         1447.599
5949.54         1441.544
5950.54         1427.875
5951.54         1422.159
5952.54         1425.831
5953.54         1430.055
5954.54         1428.148
5955.54         1418.793
5956.54         1414.984
5957.54         1426.521
5958.54         1441.559
5959.54         1448.235
5960.54         1446.818
5961.54         1445.558
5962.54         1444.254
5963.54         1445.932
5964.54         1452.909
5965.54         1457.284
5966.54         1459.554
5967.54         1463.714
5968.54         1470.211
5969.54         1479.564
5970.54         1480.284
5971.54         1466.869
5972.54         1459.769
5973.54         1455.466
5974.54         1445.818
5975.54         1439.681
5976.54         1439.615
5977.54         1442.317
5978.54          1439.88
5979.54         1424.719
5980.54         1415.719
5981.54         1421.013
5982.54         1420.821
5983.54         1418.184
5984.54          1417.76
5985.54         1416.568
5986.54          1415.64
5987.54         1421.809
5988.54         1434.943
5989.54         1444.104
5990.54         1446.414
5991.54         1447.143
5992.54          1450.26
5993.54         1451.344
5994.54         1446.867
5995.54         1441.522
5996.54         1443.409
5997.54          1447.14
5998.54         1441.667
5999.54         1428.467
6000.54         1426.884
6001.54          1432.83
6002.54         1432.052
6003.54         1425.083
6004.54         1421.159
6005.54         1419.749
6006.54         1414.714
6007.54         1410.999
6008.54         1411.545
6009.54         1411.359
6010.54         1405.288
6011.54         1403.457
6012.54         1406.954
6013.54         1407.311
6014.54         1406.136
6015.54          1405.66
6016.54         1404.011
6017.54          1399.38
6018.54         1399.891
6019.54         1405.439
6020.54         1408.266
6021.54         1410.505
6022.54         1419.456
6023.54         1434.355
6024.54         1445.527
6025.54         1455.939
6026.54         1465.715
6027.54         1469.909
6028.54         1472.592
6029.54         1481.303
6030.54          1491.12
6031.54         1489.783
6032.54         1494.422
6033.54         1505.848
6034.54         1506.127
6035.54         1502.753
6036.54          1509.02
6037.54         1520.678
6038.54         1519.313
6039.54          1509.47
6040.54         1505.903
6041.54         1512.051
6042.54         1513.949
6043.54         1509.127
6044.54         1509.177
6045.54          1521.04
6046.54         1528.305
6047.54         1523.366
6048.54         1516.052
6049.54         1509.706
6050.54         1504.626
6051.54         1501.579
6052.54         1500.818
6053.54         1497.455
6054.54         1490.895
6055.54         1485.083
6056.54         1478.904
6057.54          1474.04
6058.54         1471.671
6059.54         1470.183
6060.54         1476.701
6061.54         1486.547
6062.54         1486.712
6063.54         1484.631
6064.54         1489.117
6065.54         1495.488
6066.54         1493.817
6067.54         1499.004
6068.54         1513.713
6069.54         1522.355
6070.54         1525.662
6071.54         1528.119
6072.54         1529.724
6073.54         1526.855
6074.54         1519.532
6075.54         1513.638
6076.54         1512.015
6077.54         1504.629
6078.54         1490.728
6079.54          1477.13
6080.54         1466.401
6081.54          1458.24
6082.54         1454.576
6083.54         1456.346
6084.54         1455.499
6085.54         1449.226
6086.54         1444.327
6087.54         1449.448
6088.54         1459.515
6089.54         1463.819
6090.54         1459.743
6091.54         1457.151
6092.54         1458.825
6093.54         1460.596
6094.54         1460.663
6095.54         1453.632
6096.54         1447.007
6097.54         1454.083
6098.54         1462.552
6099.54         1462.431
6100.54         1458.423
6101.54         1459.465
6102.54         1462.284
6103.54         1458.937
6104.54         1449.094
6105.54         1443.257
6106.54         1450.452
6107.54         1466.648
6108.54         1475.974
6109.54         1475.299
6110.54         1474.648
6111.54         1480.916
6112.54         1484.905
6113.54         1479.732
6114.54         1470.951
6115.54           1470.2
6116.54         1472.137
6117.54         1465.942
6118.54         1452.561
6119.54         1444.583
6120.54         1440.081
6121.54          1431.17
6122.54         1423.364
6123.54         1419.444
6124.54         1422.227
6125.54         1433.305
6126.54          1442.71
6127.54          1450.23
6128.54         1456.568
6129.54         1450.033
6130.54         1440.238
6131.54          1435.18
6132.54          1430.26
6133.54         1430.806
6134.54         1429.904
6135.54         1420.237
6136.54          1414.99
6137.54         1415.481
6138.54         1415.258
6139.54         1414.222
6140.54         1419.956
6141.54         1433.096
6142.54         1446.638
6143.54          1454.99
6144.54         1458.156
6145.54         1460.182
6146.54         1463.379
6147.54         1464.018
6148.54         1459.176
6149.54         1450.758
6150.54         1442.794
6151.54         1432.327
6152.54         1416.064
6153.54         1398.763
6154.54         1390.369
6155.54         1381.468
6156.54         1361.022
6157.54         1342.578
6158.54         1325.102
6159.54         1306.757
6160.54         1296.901
6161.54         1295.919
6162.54         1294.535
6163.54         1286.539
6164.54           1280.6
6165.54         1286.755
6166.54         1300.766
6167.54         1309.559
6168.54         1315.207
6169.54         1324.433
6170.54         1336.677
6171.54         1342.952
6172.54         1343.626
6173.54         1346.635
6174.54         1356.854
6175.54         1371.592
6176.54         1384.492
6177.54         1390.397
6178.54          1388.49
6179.54         1385.677
6180.54         1385.535
6181.54         1384.604
6182.54         1386.458
6183.54         1383.758
6184.54         1372.406
6185.54         1370.876
6186.54         1368.404
6187.54         1354.735
6188.54         1344.588
6189.54         1339.916
6190.54         1336.044
6191.54         1332.474
6192.54         1334.367
6193.54         1338.144
6194.54         1342.264
6195.54         1352.558
6196.54         1364.958
6197.54         1374.017
6198.54         1378.719
6199.54         1381.036
6200.54         1384.476
6201.54         1388.302
6202.54         1387.803
6203.54         1383.569
6204.54         1381.737
6205.54         1385.055
6206.54          1385.69
6207.54         1381.992
6208.54         1374.171
6209.54         1358.649
6210.54         1337.645
6211.54         1320.588
6212.54         1313.019
6213.54         1306.861
6214.54         1298.474
6215.54         1291.346
6216.54         1287.822
6217.54         1280.238
6218.54         1274.764
6219.54         1281.984
6220.54         1288.552
6221.54         1290.682
6222.54         1292.247
6223.54         1292.794
6224.54         1293.836
6225.54         1295.496
6226.54         1296.315
6227.54         1296.774
6228.54         1296.538
6229.54         1295.455
6230.54         1294.967
6231.54         1296.684
6232.54         1297.346
6233.54          1294.28
6234.54         1295.018
6235.54         1303.057
6236.54         1309.932
6237.54         1304.734
6238.54         1297.036
6239.54           1293.1
6240.54         1289.674
6241.54         1289.475
6242.54         1284.196
6243.54         1271.317
6244.54         1265.617
6245.54         1266.863
6246.54         1268.412
6247.54         1270.073
6248.54         1277.125
6249.54         1285.099
6250.54         1284.668
6251.54         1275.104
6252.54         1270.087
6253.54          1272.36
6254.54          1269.99
6255.54         1261.596
6256.54         1257.586
6257.54         1262.539
6258.54         1267.615
6259.54         1271.671
6260.54         1279.108
6261.54         1291.853
6262.54          1305.63
6263.54         1320.033
6264.54         1334.111
6265.54         1341.321
6266.54         1340.734
6267.54         1340.345
6268.54         1346.404
6269.54          1350.64
6270.54         1354.758
6271.54         1359.341
6272.54         1354.318
6273.54         1353.906
6274.54          1364.56
6275.54         1373.117
6276.54           1374.6
6277.54         1373.927
6278.54         1377.639
6279.54         1384.605
6280.54         1382.585
6281.54         1362.798
6282.54         1331.752
6283.54         1306.625
6284.54         1303.711
6285.54         1320.979
6286.54         1337.885
6287.54         1347.659
6288.54         1354.023
6289.54         1361.927
6290.54         1373.261
6291.54         1383.041
6292.54          1383.53
6293.54         1373.805
6294.54         1367.926
6295.54         1369.728
6296.54         1368.222
6297.54         1360.813
6298.54         1351.032
6299.54         1343.588
6300.54         1340.968
6301.54         1344.947
6302.54         1351.835
6303.54         1354.938
6304.54         1354.038
6305.54         1355.788
6306.54         1364.743
6307.54         1375.098
6308.54          1377.42
6309.54         1374.137
6310.54         1374.401
6311.54          1370.86
6312.54         1363.931
6313.54         1359.017
6314.54         1352.216
6315.54         1342.104
6316.54         1333.724
6317.54          1333.17
6318.54         1337.134
6319.54         1340.427
6320.54         1342.533
6321.54         1347.561
6322.54         1360.056
6323.54         1377.973
6324.54         1392.463
6325.54          1397.37
6326.54         1399.999
6327.54         1408.967
6328.54         1417.474
6329.54         1418.749
6330.54         1413.828
6331.54         1409.096
6332.54         1408.604
6333.54         1406.815
6334.54         1399.666
6335.54         1395.333
6336.54          1392.25
6337.54         1385.546
6338.54         1376.329
6339.54         1367.413
6340.54         1364.383
6341.54         1368.885
6342.54         1374.076
6343.54         1380.158
6344.54         1385.465
6345.54         1382.606
6346.54         1372.785
6347.54         1365.346
6348.54         1367.239
6349.54         1374.965
6350.54         1381.196
6351.54         1381.075
6352.54         1374.587
6353.54         1364.114
6354.54         1351.173
6355.54         1338.228
6356.54         1329.777
6357.54         1321.459
6358.54         1310.758
6359.54         1302.179
6360.54          1296.12
6361.54         1294.169
6362.54         1296.804
6363.54         1299.432
6364.54         1305.371
6365.54         1320.266
6366.54         1342.211
6367.54          1361.56
6368.54         1377.343
6369.54         1394.159
6370.54         1408.761
6371.54         1415.842
6372.54         1416.124
6373.54          1416.94
6374.54         1421.466
6375.54         1424.051
6376.54         1420.498
6377.54         1418.332
6378.54         1422.414
6379.54         1427.559
6380.54         1424.303
6381.54         1416.292
6382.54         1410.822
6383.54         1410.566
6384.54         1414.296
6385.54         1421.194
6386.54          1428.57
6387.54         1431.957
6388.54         1432.011
6389.54         1426.254
6390.54         1415.638
6391.54          1412.63
6392.54         1409.291
6393.54         1400.598
6394.54         1398.011
6395.54         1395.602
6396.54         1390.402
6397.54         1388.574
6398.54         1392.556
6399.54         1398.522
6400.54         1402.436
6401.54         1404.789
6402.54         1405.788
6403.54         1406.595
6404.54         1407.798
6405.54         1407.051
6406.54         1405.632
6407.54         1405.354
6408.54         1404.837
6409.54         1403.052
6410.54          1401.99
6411.54          1401.59
6412.54         1395.828
6413.54         1392.479
6414.54         1398.951
6415.54         1406.938
6416.54          1404.72
6417.54         1397.596
6418.54           1398.2
6419.54         1400.417
6420.54         1406.763
6421.54          1416.64
6422.54         1419.261
6423.54         1423.987
6424.54          1430.12
6425.54         1426.722
6426.54         1422.632
6427.54         1428.767
6428.54         1438.309
6429.54         1433.549
6430.54         1422.932
6431.54         1419.552
6432.54          1423.33
6433.54          1425.04
6434.54         1423.912
6435.54         1425.317
6436.54         1430.729
6437.54         1437.016
6438.54         1439.889
6439.54         1438.493
6440.54         1436.646
6441.54          1437.47
6442.54         1438.855
6443.54         1436.022
6444.54         1433.724
6445.54         1430.698
6446.54         1421.803
6447.54         1415.508
6448.54         1415.057
6449.54         1413.989
6450.54         1405.921
6451.54         1398.434
6452.54         1395.496
6453.54         1396.116
6454.54         1408.672
6455.54         1423.729
6456.54         1430.697
6457.54         1437.458
6458.54          1447.56
6459.54         1457.757
6460.54         1463.085
6461.54          1461.86
6462.54         1457.544
6463.54         1453.283
6464.54         1447.985
6465.54          1443.48
6466.54         1443.422
6467.54          1448.54
6468.54         1454.071
6469.54         1458.626
6470.54         1461.386
6471.54         1459.383
6472.54         1457.971
6473.54         1457.667
6474.54          1453.65
6475.54         1450.504
6476.54         1449.995
6477.54         1449.828
6478.54         1447.984
6479.54         1441.046
6480.54         1433.117
6481.54          1430.45
6482.54         1425.228
6483.54         1419.139
6484.54         1416.119
6485.54         1409.387
6486.54         1399.586
6487.54         1392.479
6488.54         1389.434
6489.54         1382.295
6490.54         1371.896
6491.54         1362.771
6492.54         1351.168
6493.54         1338.219
6494.54          1325.67
6495.54         1313.487
6496.54         1305.263
6497.54         1311.128
6498.54         1328.041
6499.54         1334.014
6500.54         1338.732
6501.54          1353.58
6502.54         1370.255
6503.54         1383.483
6504.54         1390.905
6505.54         1394.941
6506.54           1403.5
6507.54          1419.22
6508.54         1429.939
6509.54         1424.542
6510.54         1421.351
6511.54         1424.864
6512.54         1426.952
6513.54         1429.428
6514.54         1428.992
6515.54         1424.341
6516.54         1421.349
6517.54         1424.735
6518.54         1430.584
6519.54         1430.951
6520.54         1424.464
6521.54         1418.154
6522.54          1417.21
6523.54         1420.328
6524.54         1425.135
6525.54          1430.23
6526.54         1433.277
6527.54         1431.167
6528.54         1429.635
6529.54         1432.337
6530.54         1435.963
6531.54         1440.289
6532.54         1442.801
6533.54          1441.99
6534.54         1441.928
6535.54          1440.92
6536.54         1438.872
6537.54         1440.085
6538.54         1442.678
6539.54          1445.24
6540.54         1444.768
6541.54         1433.933
6542.54         1418.204
6543.54         1410.105
6544.54         1414.195
6545.54         1418.173
6546.54         1413.458
6547.54         1402.135
6548.54         1388.746
6549.54         1378.798
6550.54         1373.053
6551.54          1367.38
6552.54         1360.711
6553.54         1353.974
6554.54         1345.532
6555.54         1331.401
6556.54         1320.282
6557.54           1312.8
6558.54         1297.947
6559.54         1282.966
6560.54         1277.335
6561.54         1279.056
6562.54         1276.641
6563.54         1271.219
6564.54         1269.385
6565.54         1273.265
6566.54         1286.984
6567.54         1307.603
6568.54         1328.867
6569.54         1349.146
6570.54         1359.033
6571.54         1360.581
6572.54         1369.712
6573.54         1380.804
6574.54         1383.968
6575.54         1382.078
6576.54         1387.599
6577.54         1399.341
6578.54         1408.674
6579.54         1412.527
6580.54         1415.505
6581.54         1420.926
6582.54         1426.817
6583.54         1429.762
6584.54         1427.662
6585.54         1421.458
6586.54         1413.955
6587.54         1406.669
6588.54         1403.034
6589.54         1407.959
6590.54         1420.798
6591.54         1424.635
6592.54          1415.99
6593.54         1411.735
6594.54          1404.89
6595.54          1394.22
6596.54         1389.819
6597.54         1392.555
6598.54         1397.401
6599.54         1400.901
6600.54         1404.448
6601.54         1407.972
6602.54         1407.834
6603.54         1402.598
6604.54         1398.451
6605.54         1398.182
6606.54         1398.791
6607.54          1396.42
6608.54         1394.225
6609.54         1395.531
6610.54         1398.675
6611.54         1399.949
6612.54          1401.76
6613.54         1408.488
6614.54         1419.179
6615.54         1425.928
6616.54         1425.868
6617.54         1423.197
6618.54         1420.185
6619.54         1418.026
6620.54         1417.123
6621.54         1416.314
6622.54         1411.409
6623.54         1400.195
6624.54         1387.881
6625.54         1385.561
6626.54         1387.414
6627.54         1383.547
6628.54         1376.962
6629.54         1369.508
6630.54         1363.988
6631.54         1362.711
6632.54         1362.468
6633.54         1362.135
6634.54         1362.945
6635.54         1365.677
6636.54         1370.116
6637.54          1375.08
6638.54         1379.342
6639.54         1382.718
6640.54         1387.234
6641.54         1391.832
6642.54           1392.1
6643.54         1393.089
6644.54         1395.886
6645.54          1394.49
6646.54         1388.515
6647.54           1382.8
6648.54         1383.639
6649.54         1391.797
6650.54         1393.349
6651.54         1389.602
6652.54         1391.526
6653.54         1385.784
6654.54         1378.138
6655.54         1378.761
6656.54         1377.583
6657.54         1373.295
6658.54         1368.282
6659.54         1363.801
6660.54         1363.661
6661.54         1367.077
6662.54         1368.669
6663.54          1365.37
6664.54         1363.754
6665.54         1366.471
6666.54         1368.505
6667.54         1368.291
6668.54         1369.637
6669.54         1371.785
6670.54         1367.548
6671.54         1366.638
6672.54         1375.224
6673.54         1382.971
6674.54         1378.418
6675.54         1372.397
6676.54         1375.818
6677.54         1377.758
6678.54         1372.974
6679.54         1366.852
6680.54         1365.574
6681.54          1364.27
6682.54         1368.032
6683.54         1379.968
6684.54          1387.85
6685.54         1391.201
6686.54          1391.14
6687.54         1385.965
6688.54         1381.873
6689.54         1381.388
6690.54         1381.374
6691.54         1379.744
6692.54         1380.519
6693.54         1381.935
6694.54         1377.076
6695.54         1369.182
6696.54         1367.881
6697.54          1374.04
6698.54         1374.682
6699.54         1371.185
6700.54         1371.806
6701.54         1377.493
6702.54          1381.26
6703.54         1383.173
6704.54         1384.736
6705.54         1380.049
6706.54         1371.791
6707.54         1365.707
6708.54          1362.85
6709.54         1360.404
6710.54         1361.757
6711.54          1363.96
6712.54         1352.225
6713.54         1338.535
6714.54         1333.153
6715.54         1328.762
6716.54         1324.009
6717.54         1319.914
6718.54         1316.267
6719.54           1312.6
6720.54         1313.941
6721.54         1322.303
6722.54         1332.284
6723.54          1337.29
6724.54         1338.794
6725.54          1343.83
6726.54         1354.492
6727.54         1362.295
6728.54         1361.777
6729.54         1358.438
6730.54         1358.916
6731.54         1362.249
6732.54         1362.308
6733.54         1356.831
6734.54         1355.376
6735.54         1359.474
6736.54         1357.397
6737.54         1349.068
6738.54         1339.881
6739.54         1336.443
6740.54         1343.105
6741.54         1344.163
6742.54         1335.256
6743.54         1333.157
6744.54         1336.854
6745.54         1337.376
6746.54         1332.212
6747.54          1328.42
6748.54         1328.486
6749.54         1331.609
6750.54         1336.772
6751.54         1339.633
6752.54         1337.851
6753.54         1336.426
6754.54         1344.708
6755.54         1358.776
6756.54         1368.422
6757.54         1370.192
6758.54         1368.999
6759.54         1370.956
6760.54          1376.35
6761.54         1377.581
6762.54         1368.585
6763.54         1355.846
6764.54         1352.346
6765.54         1354.513
6766.54         1351.786
6767.54         1344.524
6768.54          1346.85
6769.54         1351.466
6770.54         1350.583
6771.54           1352.2
6772.54          1356.22
6773.54         1361.069
6774.54         1365.978
6775.54          1368.42
6776.54         1370.215
6777.54         1373.371
6778.54         1374.592
6779.54         1366.192
6780.54         1352.375
6781.54         1346.103
6782.54         1349.424
6783.54         1350.554
6784.54          1342.31
6785.54         1331.981
6786.54         1328.473
6787.54         1330.995
6788.54         1332.991
6789.54         1333.371
6790.54         1332.344
6791.54         1333.545
6792.54         1340.549
6793.54          1345.25
6794.54         1347.055
6795.54         1349.082
6796.54         1343.442
6797.54         1339.624
6798.54         1346.805
6799.54         1356.681
6800.54          1363.97
6801.54         1367.865
6802.54          1368.05
6803.54         1363.214
6804.54         1360.586
6805.54          1365.37
6806.54         1371.528
6807.54         1371.645
6808.54         1365.716
6809.54         1369.656
6810.54         1390.548
6811.54          1292.06
6812.54           1098.1
